# density pressure -- SI UNITS
877.7154794 	 1.268385191e+05
877.7452131 	 1.781748107e+05
877.7752991 	 2.301346011e+05
877.8057430 	 2.827279527e+05
877.8365503 	 3.359650836e+05
877.8677267 	 3.898563668e+05
877.8992780 	 4.444123285e+05
877.9312101 	 4.996436464e+05
877.9635287 	 5.555611473e+05
877.9962398 	 6.121758039e+05
878.0293496 	 6.694987309e+05
878.0628640 	 7.275411813e+05
878.0967893 	 7.863145400e+05
878.1311317 	 8.458303188e+05
878.1658975 	 9.061001485e+05
878.2010930 	 9.671357710e+05
878.2367246 	 1.028949029e+06
878.2727987 	 1.091551858e+06
878.3093217 	 1.154956269e+06
878.3463002 	 1.219174338e+06
878.3837405 	 1.284218192e+06
878.4216492 	 1.350099987e+06
878.4600327 	 1.416831888e+06
878.4988976 	 1.484426050e+06
878.5382501 	 1.552894592e+06
878.5780966 	 1.622249564e+06
878.6184435 	 1.692502924e+06
878.6592968 	 1.763666491e+06
878.7006627 	 1.835751919e+06
878.7425472 	 1.908770639e+06
878.7849558 	 1.982733824e+06
878.8278943 	 2.057652321e+06
878.8713679 	 2.133536600e+06
878.9153816 	 2.210396682e+06
878.9599402 	 2.288242063e+06
879.0050481 	 2.367081632e+06
879.0507091 	 2.446923578e+06
879.0969268 	 2.527775284e+06
879.1437041 	 2.609643212e+06
879.1910432 	 2.692532776e+06
879.2389458 	 2.776448198e+06
879.2874127 	 2.861392347e+06
879.3364439 	 2.947366565e+06
879.3860383 	 3.034370469e+06
879.4361937 	 3.122401726e+06
879.4869068 	 3.211455816e+06
879.5381726 	 3.301525751e+06
879.5899848 	 3.392601772e+06
879.6423352 	 3.484671013e+06
879.6952137 	 3.577717110e+06
879.7486079 	 3.671719785e+06
879.8025029 	 3.766654364e+06
879.8568812 	 3.862491242e+06
879.9117221 	 3.959195292e+06
879.9670013 	 4.056725183e+06
880.0226908 	 4.155032637e+06
880.0787581 	 4.254061574e+06
880.1351659 	 4.353747163e+06
880.1918714 	 4.454014746e+06
880.2488257 	 4.554778629e+06
880.3059729 	 4.655940711e+06
880.3632493 	 4.757388941e+06
880.4205828 	 4.858995564e+06
880.4778912 	 4.960615141e+06
880.5350812 	 5.062082289e+06
880.5920473 	 5.163209123e+06
880.6486698 	 5.263782336e+06
880.7048131 	 5.363559869e+06
880.7603234 	 5.462267105e+06
880.8150269 	 5.559592511e+06
880.8687263 	 5.655182640e+06
880.9211979 	 5.748636391e+06
880.9721883 	 5.839498384e+06
881.0214095 	 5.927251329e+06
881.0685346 	 6.011307193e+06
881.1131916 	 6.090996948e+06
881.1549571 	 6.165558670e+06
881.1933483 	 6.234123658e+06
881.2278142 	 6.295700217e+06
881.2577244 	 6.349154651e+06
881.2823570 	 6.393188928e+06
881.3008832 	 6.426314344e+06
881.3123501 	 6.446820372e+06
881.3156588 	 6.452737691e+06
881.3095396 	 6.441794144e+06
881.2925210 	 6.411362081e+06
881.2628932 	 6.358395150e+06
881.2186629 	 6.279352088e+06
881.1574987 	 6.170104456e+06
881.0766635 	 6.025824380e+06
880.9729316 	 5.840847303e+06
880.8424845 	 5.608503300e+06
880.6807822 	 5.320908575e+06
880.4823980 	 4.968706202e+06
880.2408110 	 4.540741711e+06
879.9481378 	 4.023654340e+06
879.5947847 	 3.401358277e+06
879.1689932 	 2.654379080e+06
878.6562350 	 1.758997607e+06
878.0384018 	 6.861354628e+05
